#1576760503	meting	meettijd	temp	pressure	humidity
1	1576760503	21.17	23.00	100687.16	44.62
2	1576760508	21.36	23.00	100692.14	47.83
3	1576760513	21.37	23.00	100694.55	43.92
4	1576760518	21.36	23.00	100691.91	39.69
5	1576760523	21.41	23.00	100692.78	44.96
6	1576760528	21.42	23.00	100692.99	43.18
7	1576760533	21.41	23.00	100662.39	40.95
8	1576760538	21.41	23.00	100666.64	40.13
9	1576760543	21.38	23.00	100679.23	38.83
10	1576760548	21.38	23.00	100689.35	38.47
11	1576760553	21.37	23.00	100687.69	38.18
12	1576760558	21.35	23.00	100688.99	38.02
13	1576760563	21.35	23.00	100691.74	38.06
14	1576760568	21.35	23.00	100688.78	37.90
15	1576760574	21.37	23.00	100692.44	39.51
16	1576760579	21.35	23.00	100689.50	38.10
17	1576760584	21.32	23.00	100688.66	37.97
18	1576760589	21.31	23.00	100687.77	38.03
19	1576760594	21.31	23.00	100688.00	37.91
20	1576760599	21.31	23.00	100687.34	37.80
21	1576760604	21.30	23.00	100687.42	37.75
22	1576760609	21.28	23.00	100684.10	37.69
23	1576760614	21.29	23.00	100686.49	37.70
24	1576760619	21.27	23.00	100690.08	37.69
25	1576760624	21.27	23.00	100685.39	37.71
26	1576760629	21.29	23.00	100687.94	37.96
27	1576760634	21.29	23.00	100672.22	37.86
28	1576760639	21.29	23.00	100669.96	37.81
29	1576760644	21.29	23.00	100684.73	37.87
30	1576760649	21.29	23.00	100685.82	37.85
31	1576760654	21.30	23.00	100686.87	38.28
32	1576760659	21.30	23.00	100686.83	38.75
33	1576760664	21.29	23.00	100686.80	38.03
34	1576760669	21.28	23.00	100685.53	38.03
35	1576760674	21.27	23.00	100665.39	37.87
#1576760681	meting	meettijd	temp	pressure	humidity
1	1576760681	20.97	23.00	100684.57	38.14
2	1576760687	21.20	23.00	100685.28	37.97
3	1576760692	21.19	23.00	100681.15	37.90
4	1576760697	21.20	23.00	100683.85	37.89
5	1576760702	21.21	23.00	100684.15	37.96
6	1576760707	24.50	23.00	100690.53	49.03
7	1576760712	24.56	23.00	100684.19	73.02
8	1576760717	24.40	23.00	100686.21	63.80
9	1576760722	24.12	23.00	100683.82	63.39
#1576760729	meting	meettijd	temp	pressure	humidity
1	1576760729	23.46	23.00	100687.85	58.08
2	1576760734	23.33	23.00	100687.27	47.23
3	1576760739	23.08	23.00	100665.92	43.16
4	1576760744	22.87	23.00	100676.49	43.01
5	1576760749	22.73	23.00	100674.72	48.96
6	1576760754	22.60	23.00	100683.74	45.89
7	1576760759	22.46	23.25	100684.12	40.60
8	1576760764	22.34	23.25	100683.13	39.10
9	1576760769	22.25	23.25	100683.21	38.77
10	1576760774	22.18	23.25	100668.83	38.94
11	1576760779	22.10	23.25	100663.60	38.49
12	1576760784	22.04	23.25	100687.78	38.47
13	1576760789	21.98	23.25	100684.39	38.11
14	1576760794	21.92	23.25	100681.32	37.87
15	1576760800	21.86	23.25	100683.44	37.67
16	1576760805	21.83	23.25	100673.71	37.69
17	1576760810	21.78	23.25	100681.34	37.40
18	1576760815	21.72	23.25	100670.50	37.31
19	1576760820	21.69	23.25	100680.28	38.03
20	1576760825	21.66	23.25	100670.97	37.57
21	1576760830	21.62	23.25	100677.82	37.48
22	1576760835	21.61	23.25	100681.71	37.71
23	1576760840	21.59	23.25	100677.37	37.53
24	1576760845	21.57	23.25	100675.91	37.50
25	1576760850	21.55	23.25	100654.89	37.49
26	1576760855	21.53	23.25	100677.21	37.51
27	1576760860	21.49	23.25	100676.85	37.49
28	1576760865	21.46	23.25	100675.25	37.51
29	1576760870	21.45	23.25	100675.57	37.60
30	1576760875	21.44	23.25	100675.91	37.63
31	1576760880	21.43	23.25	100675.85	37.66
32	1576760885	21.42	23.00	100674.42	37.61
33	1576760890	21.41	23.00	100666.97	37.64
34	1576760895	21.39	23.00	100673.47	37.65
#1576761189	meting	meettijd	temp	pressure	humidity
1	1576761189	20.94	23.00	100658.85	38.28
#1576761198	meting	meettijd	temp	pressure	humidity
1	1576761198	21.03	23.00	100656.59	38.08
2	1576761203	21.20	23.00	100655.36	38.03
3	1576761208	21.20	23.00	100660.11	38.00
4	1576761213	21.20	23.00	100663.88	37.98
5	1576761218	21.20	23.00	100661.19	37.97
6	1576761223	21.20	23.00	100659.39	38.09
7	1576761228	21.19	23.00	100641.71	38.01
8	1576761233	21.19	23.00	100643.44	38.02
9	1576761238	21.18	23.00	100659.83	38.02
10	1576761243	21.18	23.00	100655.91	38.03
11	1576761248	21.19	23.00	100656.50	38.02
12	1576761253	21.18	23.00	100635.96	38.02
13	1576761258	21.19	23.00	100654.70	38.04
14	1576761263	21.20	23.00	100655.92	38.02
15	1576761268	21.20	23.25	100652.85	38.03
16	1576761273	21.21	23.25	100653.28	38.03
17	1576761278	21.20	23.25	100634.19	38.03
18	1576761283	21.19	23.25	100642.95	38.02
19	1576761288	21.20	23.25	100649.92	38.03
20	1576761293	21.20	23.25	100649.80	38.03
21	1576761298	21.20	23.25	100639.65	38.06
22	1576761303	21.20	23.25	100643.85	38.08
23	1576761308	21.21	23.25	100652.39	38.09
24	1576761313	21.21	23.25	100650.00	38.15
25	1576761318	21.20	23.25	100653.89	38.11
26	1576761323	21.20	23.25	100655.16	38.07
27	1576761328	21.19	23.25	100651.13	38.05
28	1576761333	21.20	23.25	100645.71	38.08
29	1576761338	21.19	23.25	100656.86	38.04
30	1576761343	21.19	23.25	100656.00	38.05
31	1576761348	21.19	23.25	100654.47	38.07
32	1576761353	21.19	23.25	100653.65	38.14
33	1576761358	21.18	23.25	100656.39	38.14
34	1576761363	21.19	23.25	100653.00	38.13
35	1576761368	21.18	23.25	100650.50	38.08
36	1576761373	21.18	23.25	100651.84	38.09
37	1576761378	21.17	23.25	100653.89	38.08
38	1576761383	21.16	23.25	100641.44	38.16
39	1576761388	21.16	23.25	100654.93	38.20
40	1576761393	21.16	23.25	100652.02	38.23
41	1576761399	21.17	23.00	100653.66	38.23
42	1576761404	21.17	23.00	100653.39	38.17
43	1576761409	21.16	23.00	100652.48	38.20
44	1576761414	21.16	23.00	100635.71	38.25
45	1576761419	21.15	23.00	100655.28	38.27
46	1576761424	21.14	23.00	100652.85	38.23
47	1576761429	21.14	23.00	100658.35	38.25
48	1576761434	21.13	23.00	100644.00	38.24
49	1576761439	21.14	23.00	100654.58	38.22
50	1576761444	21.15	23.00	100656.16	38.22
51	1576761449	21.15	23.00	100657.63	38.23
52	1576761454	21.15	23.00	100654.52	38.18
53	1576761459	21.15	23.00	100652.07	38.18
54	1576761464	21.14	23.00	100638.38	38.27
55	1576761469	21.13	23.00	100639.61	38.27
56	1576761474	21.13	23.00	100652.57	38.31
57	1576761479	21.13	23.00	100653.55	38.35
58	1576761484	21.12	23.00	100653.51	38.28
59	1576761489	21.11	23.00	100645.19	38.26
60	1576761494	21.12	23.00	100650.96	38.32
61	1576761499	21.11	23.00	100646.30	38.33
62	1576761504	21.10	23.00	100648.12	38.32
63	1576761509	21.10	23.00	100647.41	38.36
64	1576761514	21.10	23.00	100650.14	38.37
65	1576761519	21.10	23.00	100649.37	38.36
66	1576761524	21.11	23.00	100650.82	38.36
67	1576761529	21.12	23.00	100651.51	38.33
68	1576761534	21.12	23.00	100652.53	38.31
69	1576761539	21.12	23.00	100650.21	38.31
70	1576761544	21.12	23.00	100648.11	38.30
71	1576761549	21.13	23.00	100649.96	38.30
72	1576761554	21.13	23.00	100648.80	38.35
73	1576761559	21.11	23.00	100649.45	38.32
74	1576761564	21.12	23.00	100647.13	38.34
75	1576761569	21.12	23.00	100648.67	38.32
76	1576761574	21.12	23.00	100652.10	38.33
77	1576761579	21.13	23.00	100647.10	38.35
78	1576761584	21.12	23.00	100654.60	38.30
79	1576761589	21.11	23.00	100649.24	38.31
80	1576761594	21.11	23.00	100647.48	38.35
81	1576761599	21.10	23.00	100648.39	38.32
82	1576761604	21.12	23.00	100649.91	38.43
83	1576761609	21.12	23.00	100650.21	38.35
84	1576761615	21.12	23.00	100648.99	38.32
85	1576761620	21.13	23.00	100648.64	38.32
86	1576761625	21.13	23.00	100646.51	38.36
87	1576761630	21.13	23.00	100649.44	38.34
88	1576761635	21.12	23.00	100651.82	38.35
89	1576761640	21.13	23.00	100643.41	38.30
90	1576761645	21.12	23.00	100648.50	38.29
91	1576761650	21.12	23.00	100650.36	38.29
92	1576761655	21.11	23.00	100652.25	38.32
93	1576761660	21.10	23.00	100649.00	38.32
94	1576761665	21.09	23.00	100647.17	38.32
95	1576761670	21.10	23.00	100650.14	38.35
96	1576761675	21.08	23.00	100648.13	38.37
97	1576761680	21.08	23.00	100647.38	38.38
98	1576761685	21.08	23.00	100650.07	38.39
99	1576761690	21.07	23.00	100636.83	38.40
100	1576761695	21.06	23.00	100639.74	38.40
101	1576761700	21.08	23.00	100646.89	38.39
102	1576761705	21.09	23.00	100647.72	38.36
103	1576761710	21.09	23.00	100650.96	38.34
104	1576761715	21.08	23.00	100649.57	38.40
105	1576761720	21.09	23.00	100651.11	38.37
106	1576761725	21.09	23.00	100649.97	38.44
107	1576761730	21.08	23.00	100652.35	38.39
108	1576761735	21.09	23.00	100650.78	38.39
109	1576761740	21.08	23.00	100649.87	38.38
110	1576761745	21.09	23.00	100650.01	38.38
111	1576761750	21.08	23.00	100646.60	38.39
112	1576761755	21.09	23.00	100647.68	38.39
113	1576761760	21.08	23.00	100646.92	38.40
114	1576761765	21.09	23.00	100647.19	38.38
115	1576761770	21.07	23.00	100642.94	38.38
116	1576761775	21.07	23.00	100646.85	38.39
117	1576761780	21.08	23.00	100646.66	38.38
118	1576761785	21.09	23.00	100646.57	38.38
119	1576761790	21.10	23.00	100648.41	38.38
120	1576761795	21.09	23.00	100648.14	38.37
121	1576761800	21.10	23.00	100649.82	38.38
122	1576761805	21.10	23.00	100649.07	38.38
123	1576761810	21.10	23.00	100646.22	38.38
124	1576761815	21.10	23.00	100646.00	38.38
125	1576761820	21.11	23.00	100647.17	38.37
126	1576761825	21.11	23.00	100645.21	38.36
127	1576761830	21.11	23.00	100645.85	38.35
128	1576761836	21.12	23.00	100646.64	38.38
129	1576761841	21.12	23.00	100645.27	38.36
130	1576761846	21.13	23.00	100646.35	38.34
131	1576761851	21.13	23.00	100646.78	38.34
132	1576761856	21.13	23.00	100642.75	38.34
133	1576761861	21.13	23.00	100641.91	38.31
134	1576761866	21.13	23.00	100642.62	38.34
135	1576761871	21.13	23.00	100645.80	38.33
136	1576761876	21.13	23.00	100650.15	38.33
137	1576761881	21.13	23.00	100647.27	38.34
138	1576761886	21.13	23.00	100645.47	38.34
139	1576761891	21.13	23.00	100641.54	38.34
140	1576761896	21.12	23.00	100642.28	38.33
141	1576761901	21.10	23.00	100640.89	38.36
142	1576761906	21.09	23.00	100642.58	38.39
143	1576761911	21.11	23.00	100643.58	38.37
144	1576761916	21.11	23.00	100642.80	38.37
145	1576761921	21.11	23.00	100642.86	38.41
146	1576761926	21.12	23.00	100643.96	38.43
147	1576761931	21.12	23.00	100644.02	38.40
148	1576761936	21.12	23.00	100640.48	38.42
149	1576761941	21.11	23.00	100637.46	38.38
150	1576761946	21.11	23.00	100639.42	38.43
151	1576761951	21.10	23.00	100640.86	38.43
152	1576761956	21.11	23.00	100639.00	38.42
153	1576761961	21.11	23.00	100640.50	38.41
154	1576761966	21.11	23.00	100638.49	38.42
155	1576761971	21.11	23.00	100638.32	38.41
156	1576761976	21.11	23.00	100637.33	38.41
157	1576761981	21.12	23.00	100639.40	38.40
158	1576761986	21.13	23.00	100640.72	38.40
159	1576761991	21.14	23.00	100638.74	38.37
160	1576761996	21.13	23.00	100624.62	38.34
161	1576762001	21.13	23.00	100626.03	38.34
162	1576762006	21.13	23.00	100637.22	38.34
163	1576762011	21.14	23.00	100638.02	38.59
164	1576762016	21.15	23.00	100632.92	38.76
165	1576762021	21.15	23.00	100626.37	39.18
166	1576762026	21.15	23.00	100634.39	38.66
167	1576762031	21.14	23.00	100633.80	38.48
168	1576762036	21.15	23.25	100636.03	38.42
169	1576762041	21.15	23.25	100634.07	38.41
170	1576762046	21.14	23.25	100635.82	38.42
171	1576762052	21.14	23.25	100635.00	38.43
172	1576762057	21.14	23.25	100635.33	38.63
173	1576762062	21.16	23.25	100634.64	40.23
174	1576762067	21.16	23.25	100635.71	38.89
175	1576762072	21.15	23.25	100634.53	38.65
176	1576762077	21.15	23.25	100632.36	38.52
177	1576762082	21.15	23.25	100631.28	38.46
178	1576762087	21.14	23.25	100632.88	38.46
179	1576762092	21.14	23.25	100633.64	38.42
180	1576762097	21.14	23.25	100633.31	38.42
181	1576762102	21.14	23.00	100628.24	38.40
